time,f1,b1,f2,b2,f3,b3,f1p,f2p,f3p,f0,intensity
0.026000,265.7,49.7,1710.5,254.2,2750.5,14.1,283.5,1745.4,2743.2,241.4,82.8
0.028000,278.6,55.7,1711.6,204.5,2746.8,14.9,283.2,1744.2,2743.5,242.7,82.5
0.030000,292.7,57.2,1710.0,162.8,2742.2,17.4,282.8,1742.1,2744.1,244.1,82.2
0.032000,300.3,55.7,1711.5,137.0,2739.3,23.1,282.3,1739.4,2744.9,245.6,82.1
0.034000,300.9,53.0,1715.5,117.1,2739.5,32.1,281.6,1736.3,2745.9,247.1,82.1
0.036000,295.5,49.2,1717.7,97.7,2741.5,40.5,280.9,1733,2747.1,248.7,82.2
0.038000,286.3,44.8,1716.2,85.4,2741.4,43.7,280,1729.7,2748.3,250.3,82.5
0.040000,275.3,38.1,1713.9,83.2,2741.6,45.6,279.1,1726.7,2749.6,252,82.9
0.042000,266.0,27.9,1715.6,97.4,2747.3,50.6,278.2,1724.3,2751,253.7,83.3
0.044000,262.0,17.2,1727.9,141.9,2756.1,59.4,277.3,1722.8,2752.3,255.5,83.8
0.046000,262.9,10.9,1754.6,219.2,2758.7,67.8,276.4,1722.7,2753.6,257.3,84.5
0.048000,266.0,7.5,1788.6,304.9,2755.2,74.2,275.6,1724,2754.7,259.1,85.2
0.050000,269.1,5.9,1808.3,344.2,2748.2,75.3,274.8,1727.2,2755.7,260.9,86
0.052000,270.9,5.6,1811.0,341.0,2742.3,71.8,274.2,1732.5,2756.5,262.7,86.8
0.054000,271.8,6.6,1810.5,333.5,2741.2,66.2,273.8,1740.2,2757,264.5,87.5
0.056000,272.5,8.4,1807.8,332.6,2749.0,56.8,273.5,1750.3,2757.3,266.2,88.2
0.058000,273.2,9.9,1801.8,358.6,2764.1,44.2,273.4,1763,2757.2,268,88.6
0.060000,274.1,10.2,1796.2,446.6,2775.9,32.8,273.5,1778.4,2756.8,269.7,88.9
0.062000,275.5,9.4,1790.7,638.8,2778.6,26.7,273.8,1796.6,2756.1,271.4,89.1
0.064000,277.3,8.6,1769.8,887.7,2776.3,25.2,274.3,1817.3,2755,273.1,89
0.066000,279.1,8.1,1739.2,1106.4,2773.2,26.2,275,1840.6,2753.6,274.7,88.7
0.068000,280.6,7.4,1779.8,1249.4,2770.7,31.0,275.9,1866.3,2751.8,276.3,88.4
0.070000,281.4,6.3,1893.6,1208.6,2769.2,41.7,277.1,1894,2749.8,277.8,88
0.072000,281.9,5.0,1940.1,929.5,2767.2,57.9,278.4,1923.7,2747.4,279.3,87.6
0.074000,282.6,4.3,1931.0,660.5,2760.3,78.8,279.9,1954.8,2744.8,280.8,87.2
0.076000,283.5,4.2,1924.3,537.5,2744.7,103.2,281.5,1987.1,2742.1,282.2,86.9
0.078000,284.7,4.2,1934.7,504.7,2721.6,124.4,283.3,2020.2,2739.1,283.5,86.6
0.080000,286.2,4.2,1973.6,525.2,2703.7,135.1,285.1,2053.6,2736.1,284.9,86.3
0.082000,288.1,4.4,2053.9,565.8,2699.4,145.0,287,2086.9,2733,286.1,86.1
0.084000,289.9,4.5,2160.3,581.3,2705.6,164.2,289,2119.8,2730,287.4,85.9
0.086000,291.7,4.5,2279.7,539.2,2718.0,200.8,291,2151.7,2727,288.5,85.8
0.088000,293.7,4.4,2373.7,437.6,2738.8,253.5,292.9,2182.3,2724.2,289.7,85.7
0.090000,295.3,4.2,2398.5,393.6,2747.6,278.9,294.8,2211.2,2721.6,290.8,85.7
0.092000,296.5,4.4,2361.4,460.6,2725.8,250.9,296.7,2238,2719.3,291.8,85.7
0.094000,297.5,5.0,2255.6,545.4,2706.6,184.8,298.4,2262.6,2717.2,292.9,85.7
0.096000,298.2,5.9,2161.7,570.6,2700.9,142.0,300.1,2284.6,2715.6,293.8,85.7
0.098000,299.1,6.8,2114.3,600.6,2697.6,120.8,301.6,2303.9,2714.3,294.8,85.7
0.100000,300.1,7.8,2123.3,673.6,2694.0,112.7,303.1,2320.4,2713.5,295.7,85.6
0.102000,301.0,8.7,2194.8,766.0,2691.9,112.4,304.3,2333.9,2713.2,296.5,85.6
0.104000,302.0,9.5,2308.7,801.3,2693.6,114.5,305.4,2344.6,2713.3,297.3,85.5
0.106000,303.3,9.9,2394.1,752.5,2700.1,113.0,306.4,2352.5,2714,298.1,85.4
0.108000,304.8,10.0,2414.9,709.8,2708.3,105.5,307.3,2357.7,2715.1,298.8,85.3
0.110000,306.4,9.8,2400.0,691.9,2716.2,95.2,308,2360.4,2716.7,299.5,85.2
0.112000,307.9,9.8,2372.3,684.8,2723.1,85.4,308.6,2360.9,2718.8,300.1,85.1
0.114000,309.0,10.4,2357.4,677.4,2728.7,78.8,309.1,2359.4,2721.4,300.7,85
0.116000,309.8,11.3,2360.2,652.4,2734.1,74.4,309.4,2356.3,2724.4,301.2,84.9
0.118000,310.4,12.1,2370.0,592.1,2740.4,70.8,309.8,2351.8,2727.7,301.7,84.8
0.120000,310.7,12.3,2373.0,516.7,2746.8,67.8,310,2346.4,2731.4,302.2,84.7
0.122000,311.0,12.2,2370.1,447.0,2753.2,65.2,310.2,2340.4,2735.4,302.6,84.6
0.124000,311.5,12.3,2367.9,393.1,2759.5,64.3,310.4,2334.2,2739.6,302.9,84.5
0.126000,312.3,13.1,2370.1,355.4,2765.6,65.4,310.5,2328,2744,303.2,84.4
0.128000,313.1,14.1,2373.5,340.1,2770.1,67.4,310.7,2322.4,2748.4,303.5,84.4
0.130000,313.5,14.7,2373.2,345.6,2772.8,69.0,310.9,2317.4,2753,303.7,84.5
0.132000,313.4,14.7,2366.6,368.2,2774.3,69.1,311.1,2313.4,2757.5,303.8,84.5
0.134000,312.9,14.4,2356.6,392.9,2775.7,67.9,311.3,2310.7,2761.9,303.9,84.6
0.136000,312.3,14.1,2345.1,410.2,2777.5,66.0,311.5,2309.3,2766.3,303.9,84.7
0.138000,312.2,14.4,2328.1,421.5,2779.0,63.6,311.8,2309.4,2770.4,303.9,84.8
0.140000,312.5,15.1,2305.5,429.9,2779.2,61.2,312.1,2311.1,2774.3,303.8,84.9
0.142000,313.2,15.8,2282.6,435.5,2778.5,59.3,312.5,2314.4,2777.9,303.6,85
0.144000,314.0,16.2,2268.4,437.0,2777.8,58.0,312.8,2319.2,2781.2,303.3,85.1
0.146000,314.8,16.5,2268.8,435.7,2777.2,57.7,313.1,2325.4,2784.2,303,85.2
0.148000,315.4,16.8,2278.7,433.1,2776.7,57.4,313.4,2332.9,2786.7,302.7,85.3
0.150000,315.7,16.8,2289.3,429.4,2775.5,55.7,313.7,2341.5,2788.9,302.2,85.4
0.152000,315.4,16.2,2293.0,425.1,2773.0,52.3,313.9,2351,2790.7,301.7,85.5
0.154000,314.7,15.5,2293.2,418.8,2769.0,48.3,314.1,2361.2,2792,301.1,85.6
0.156000,313.7,15.3,2298.0,412.0,2763.3,45.5,314.1,2371.8,2792.9,300.4,85.6
0.158000,312.6,16.0,2310.4,415.8,2757.3,45.0,314.1,2382.5,2793.5,299.7,85.6
0.160000,311.2,17.1,2329.3,445.7,2751.7,47.6,313.9,2393.1,2793.6,298.9,85.6
0.162000,309.4,18.0,2357.7,517.0,2746.9,55.1,313.6,2403.3,2793.3,298,85.5
0.164000,307.4,18.5,2409.4,626.1,2742.7,70.4,313.1,2412.8,2792.7,297,85.4
0.166000,306.1,18.7,2490.2,692.0,2740.0,95.9,312.5,2421.4,2791.8,296,85.3
0.168000,305.4,19.0,2574.8,627.0,2742.2,142.8,311.6,2428.9,2790.5,294.8,85.2
0.170000,305.1,19.6,2587.9,452.9,2772.6,213.5,310.7,2435.1,2789,293.6,85.1
0.172000,304.9,20.7,2530.1,367.3,2819.4,202.9,309.5,2440,2787.3,292.4,84.9
0.174000,304.6,22.2,2466.8,330.1,2843.6,159.9,308.2,2443.3,2785.3,291,84.8
0.176000,304.0,24.5,2412.9,296.8,2853.4,123.0,306.7,2445.2,2783.2,289.7,84.6
0.178000,303.8,27.9,2386.2,270.0,2853.3,101.7,305.1,2445.5,2781,288.2,84.3
0.180000,304.5,33.7,2382.9,254.0,2847.5,90.8,303.4,2444.3,2778.7,286.7,84
0.182000,306.9,42.7,2395.8,259.4,2838.2,87.4,301.6,2441.8,2776.3,285.2,83.7
0.184000,309.2,51.5,2415.6,307.7,2826.9,91.4,299.7,2438.1,2774,283.6,83.4
0.186000,308.8,56.4,2439.5,434.1,2809.9,98.5,297.8,2433.2,2771.7,282,83.1
0.188000,305.3,55.6,2461.3,663.0,2786.3,93.6,295.8,2427.6,2769.4,280.3,82.8
0.190000,301.7,52.3,2464.0,840.7,2768.8,80.7,293.9,2421.2,2767.2,278.6,82.5
0.192000,299.2,49.8,2461.0,848.7,2756.7,73.5,292,2414.5,2765.2,277,82.2
0.194000,297.2,49.2,2471.9,753.2,2747.6,71.9,290.3,2407.6,2763.3,275.3,81.8
0.196000,295.4,50.5,2498.3,655.6,2741.7,76.3,288.6,2400.8,2761.5,273.6,81.4
0.198000,293.1,52.9,2530.7,570.5,2739.4,89.8,287.1,2394.3,2760,272,80.8
0.200000,289.4,55.2,2545.1,508.8,2741.9,113.9,285.8,2388.4,2758.7,270.4,80.1
0.202000,284.0,56.7,2514.5,509.8,2747.9,140.2,284.7,2383.3,2757.5,268.8,79.4
0.204000,279.2,58.0,2436.5,596.2,2748.0,150.6,283.8,2379.1,2756.7,267.3,78.6
0.206000,275.1,59.1,2307.8,726.2,2739.1,137.3,283.1,2376,2756,265.8,77.8
0.208000,270.2,58.1,2138.4,788.3,2725.4,108.6,282.7,2374,2755.6,264.3,77
0.210000,264.2,54.0,2002.8,724.9,2710.1,86.9,282.6,2373.4,2755.5,263,76.1
