time,f1,b1,f2,b2,f3,b3,f1p,f2p,f3p,f0,intensity,harmonicity
0.025000,980.2,890.9,1935.8,238.2,3551.4,369.8,710.2,1899.7,3543.1,323.8,76.5,-1.5
0.027000,737.2,912.3,1924.4,239.7,3528.6,335.8,704.2,1899.9,3542.2,323.8,78.3,-1.6
0.029000,605.7,798.2,1907.9,254.5,3536.4,308.5,695,1900.2,3540.7,323.8,80.1,-1
0.031000,573.7,651.3,1884.8,251.7,3550.7,298.4,683.5,1900.8,3538,323.8,81.6,0.2
0.033000,577.4,515.5,1867.7,222.3,3549.4,305.2,671,1901.8,3534,323.7,82.9,1.5
0.035000,592.0,424.0,1866.8,191.7,3528.4,309.5,658.9,1903.2,3528.3,323.5,83.8,2.7
0.037000,610.2,363.6,1877.5,169.1,3502.5,295.7,648.8,1905.2,3520.5,323.3,84.4,3.8
0.039000,629.5,323.4,1895.7,154.3,3487.0,275.1,642.2,1907.8,3510.4,322.9,84.7,5
0.041000,646.9,300.3,1916.0,146.6,3483.7,271.9,640.2,1911.2,3497.9,322.4,84.8,6.3
0.043000,663.7,289.7,1934.2,142.9,3485.5,299.1,643.9,1915.5,3483,321.8,84.7,7.5
0.045000,679.9,291.9,1944.5,140.5,3485.8,347.8,653.9,1920.6,3466,321,84.6,8.6
0.047000,697.1,302.1,1947.9,136.4,3475.4,388.6,670.5,1926.7,3447.3,320,84.3,9.4
0.049000,717.5,313.8,1948.3,131.2,3447.2,387.3,693.2,1933.7,3427.6,318.8,84.1,10.2
0.051000,740.8,325.4,1949.0,129.7,3413.8,342.4,721.6,1941.5,3407.6,317.3,83.9,10.9
0.053000,768.1,342.0,1950.2,135.6,3385.1,285.2,754.3,1950.1,3388.2,315.6,83.7,11.4
0.055000,796.8,364.0,1952.2,148.1,3362.4,241.0,790.1,1959.3,3370.4,313.6,83.6,11.7
0.057000,827.9,386.7,1957.6,162.7,3341.0,206.7,827.2,1969,3355,311.3,83.5,11.8
0.059000,863.6,401.0,1968.7,172.6,3321.9,174.1,863.9,1979,3342.8,308.7,83.5,11.6
0.061000,899.4,397.7,1982.8,172.8,3311.8,145.0,898.4,1989.2,3334.6,305.7,83.5,11.3
0.063000,930.8,377.7,1995.8,166.3,3314.3,123.1,929.1,1999.4,3330.7,302.5,83.5,11.1
0.065000,950.8,354.1,2004.6,160.5,3328.5,110.5,954.7,2009.4,3331.3,298.9,83.6,11.1
0.067000,962.5,339.6,2012.4,159.3,3348.3,100.9,974,2019.1,3336.3,294.9,83.7,11.3
0.069000,969.9,340.5,2022.9,163.1,3367.6,91.0,986.6,2028.2,3345.2,290.7,83.7,11.6
0.071000,974.9,353.6,2036.3,169.7,3381.4,83.3,992.1,2036.9,3357.4,286.2,83.8,12
0.073000,977.7,370.2,2051.4,177.9,3390.4,80.1,990.8,2044.9,3371.7,281.5,83.8,12.5
0.075000,976.3,377.7,2064.6,184.9,3395.7,82.2,983.5,2052.2,3387.1,276.5,83.9,12.8
0.077000,968.3,368.9,2073.2,186.8,3400.4,88.8,971,2058.9,3402.2,271.3,84,13.1
0.079000,953.1,346.3,2074.8,180.7,3407.6,100.5,954.8,2064.9,3415.8,265.9,84.1,13.2
0.081000,935.5,324.4,2072.3,170.5,3416.7,117.3,936.1,2070.3,3426.5,260.5,84.2,13.4
0.083000,917.4,311.9,2070.3,161.4,3425.2,140.2,916.6,2075.2,3433.3,255,84.4,13.7
0.085000,900.8,309.2,2070.8,155.8,3428.4,164.3,897.4,2079.6,3435.3,249.5,84.6,14.2
0.087000,886.9,311.6,2073.9,151.2,3423.2,181.3,879.9,2083.6,3432,244,84.8,15
0.089000,878.2,319.2,2080.6,144.2,3409.1,179.9,865,2087.4,3423.2,238.6,85,16.1
0.091000,874.9,329.6,2089.4,133.6,3393.1,163.7,853,2090.9,3409.2,233.3,85.1,17.3
0.093000,871.3,336.5,2097.3,120.2,3380.4,146.0,844.4,2094.4,3390.4,228.2,85.3,18.4
0.095000,862.7,335.6,2102.3,107.5,3371.7,135.9,838.7,2097.7,3368,223.3,85.4,19.1
0.097000,849.2,328.0,2105.2,96.9,3362.5,134.4,835.4,2101,3343,218.6,85.4,19.4
0.099000,833.6,315.2,2107.1,88.7,3347.7,141.7,833.5,2104.2,3317.1,214.2,85.5,19.3
0.101000,819.6,300.6,2108.5,82.5,3324.5,156.0,832.1,2107.4,3291.7,210.1,85.5,19.1
0.103000,807.4,285.9,2110.1,75.7,3289.9,172.6,829.7,2110.6,3268.6,206.2,85.5,18.9
0.105000,797.0,273.7,2112.0,68.1,3250.7,183.4,825.2,2113.7,3249.1,202.7,85.5,18.6
0.107000,785.8,261.3,2114.2,61.2,3216.2,190.2,817.4,2116.6,3234.6,199.4,85.4,18.5
0.109000,772.0,246.6,2116.2,56.7,3194.1,202.5,805.4,2119.5,3226.1,196.5,85.3,18.3
0.111000,757.1,232.3,2118.1,55.3,3188.5,230.7,788.6,2122.1,3224.2,193.9,85.1,18.1
0.113000,742.2,223.6,2120.4,56.7,3198.0,287.6,766.8,2124.5,3229.1,191.5,84.8,17.7
0.115000,730.6,227.5,2123.9,60.1,3222.8,374.0,740.2,2126.7,3240.4,189.4,84.4,17
0.117000,721.5,246.4,2128.2,64.8,3265.6,478.4,709.3,2128.6,3257.6,187.6,84,15.9
0.119000,711.6,280.6,2132.7,71.9,3322.4,569.2,675.3,2130.3,3279.5,186,83.5,14.5
0.121000,698.3,331.0,2137.1,81.1,3363.1,602.1,639.5,2131.7,3304.7,184.7,83,12.9
0.123000,677.1,409.6,2142.2,90.8,3365.4,586.1,603.5,2132.8,3331.6,183.5,82.4,11.4
0.125000,643.5,512.7,2145.7,96.4,3347.2,557.6,569,2133.7,3358.3,182.5,81.7,10.2
0.127000,592.2,633.5,2145.1,95.1,3341.5,521.4,537.8,2134.4,3383.2,181.7,80.9,9.4
0.129000,523.5,765.3,2139.8,87.9,3363.5,463.1,511.6,2134.9,3404.5,181,80.1,8.8
0.131000,452.7,875.9,2132.0,80.6,3401.1,392.6,491.7,2135.2,3420.8,180.4,79.1,8.3
0.133000,397.9,877.7,2123.8,78.2,3439.2,336.1,479.3,2135.4,3431.1,180,78,7.9
0.135000,392.5,710.7,2118.9,83.1,3469.3,329.3,475.1,2135.5,3434.5,179.6,76.7,7.6
