time,f1,b1,f2,b2,f3,b3,f1p,f2p,f3p,f0,intensity,harmonicity
0.025000,676.0,922.4,2285.2,120.7,3434.3,172.3,715.8,2284.4,3390.1,166.7,85.1,18.2
0.027000,696.5,906.1,2279.3,134.4,3428.1,164.5,721.8,2281.9,3391.5,166.8,85,17.9
0.029000,719.3,887.4,2271.4,149.1,3425.0,163.9,731.5,2277.8,3393.7,166.9,84.8,17.7
0.031000,743.9,868.5,2263.1,162.8,3419.7,168.2,744.6,2272.1,3396.6,167,84.7,17.5
0.033000,768.8,849.2,2256.3,173.0,3411.3,176.1,760.6,2264.9,3399.8,167.1,84.7,17.5
0.035000,794.4,833.9,2252.2,178.8,3400.9,186.5,778.7,2256.2,3403.1,167.3,84.7,17.6
0.037000,818.2,829.7,2250.0,181.5,3389.8,196.7,798.4,2246.1,3406.2,167.4,84.7,17.8
0.039000,839.6,840.5,2246.9,184.4,3378.4,204.6,818.7,2234.8,3408.7,167.5,84.9,18.1
0.041000,858.3,869.6,2240.2,190.0,3370.0,206.9,839.1,2222.3,3410.3,167.6,85,18.5
0.043000,873.4,912.4,2227.6,198.3,3367.8,201.2,858.6,2208.9,3410.6,167.8,85.2,18.8
0.045000,886.3,967.0,2207.5,206.8,3371.4,187.5,876.7,2194.7,3409.5,167.9,85.3,18.9
0.047000,902.7,1029.4,2184.3,210.3,3377.0,170.8,892.6,2179.9,3406.7,168,85.5,19
0.049000,926.4,1091.0,2161.4,207.2,3381.4,157.3,905.8,2164.6,3402.2,168.2,85.6,19.1
0.051000,949.6,1130.5,2140.6,198.6,3383.0,150.9,916,2149.2,3395.8,168.3,85.7,19.1
0.053000,958.4,1130.4,2121.7,186.4,3381.2,152.7,922.9,2133.9,3387.7,168.4,85.7,19.2
0.055000,948.0,1089.3,2104.9,172.4,3376.4,162.4,926.5,2118.9,3378,168.5,85.7,19.3
0.057000,924.0,1023.2,2092.0,159.3,3370.4,177.9,926.7,2104.4,3367,168.7,85.6,19.5
0.059000,889.5,934.2,2081.5,146.4,3364.4,198.2,923.8,2090.8,3355,168.8,85.5,19.7
0.061000,854.8,821.6,2071.4,131.7,3356.8,222.1,918.2,2078.1,3342.5,168.9,85.3,19.9
0.063000,832.1,706.7,2061.7,115.2,3345.2,246.1,910.4,2066.7,3330,169.1,85.1,20.1
0.065000,823.5,612.8,2053.4,99.7,3330.4,265.7,901,2056.7,3317.9,169.2,84.9,20.2
0.067000,826.0,559.8,2048.0,90.0,3317.1,279.3,890.7,2048.2,3306.8,169.3,84.7,20.3
0.069000,835.7,547.1,2045.4,86.0,3306.7,288.1,880.2,2041.4,3297.3,169.5,84.6,20.4
0.071000,850.9,572.9,2045.3,86.2,3300.7,286.4,870.3,2036.2,3289.8,169.6,84.4,20.5
0.073000,871.7,625.5,2046.8,88.1,3300.5,267.9,861.7,2032.8,3284.9,169.7,84.4,20.6
0.075000,895.0,669.4,2048.1,89.1,3305.3,239.8,855.1,2031,3282.9,169.9,84.3,20.7
0.077000,908.7,661.0,2047.3,88.1,3312.8,219.1,851.1,2030.8,3284,170,84.3,21
0.079000,911.6,606.2,2044.1,86.6,3320.0,210.0,850.2,2031.9,3288.6,170.2,84.2,21.2
0.081000,910.7,537.8,2039.8,86.6,3321.7,211.8,852.6,2034.2,3296.7,170.4,84.2,21.4
0.083000,911.4,481.6,2035.9,89.5,3315.9,221.2,858.7,2037.4,3308.1,170.5,84.1,21.5
0.085000,915.8,447.7,2034.0,97.1,3308.1,232.9,868.5,2041.2,3322.7,170.7,84.1,21.5
0.087000,924.5,439.8,2035.4,108.8,3309.9,241.0,881.8,2045.4,3340.3,170.9,84,21.4
0.089000,936.7,450.1,2039.6,122.4,3326.4,246.1,898.4,2049.4,3360.2,171.1,83.9,21.2
0.091000,950.1,469.7,2044.7,134.6,3353.5,252.4,917.8,2053.1,3382.1,171.3,83.9,21
0.093000,962.4,494.2,2048.8,145.2,3384.6,264.0,939.5,2056,3405.3,171.6,83.9,20.8
0.095000,973.0,522.9,2051.3,157.7,3415.1,285.3,962.9,2057.9,3429.1,171.8,83.9,20.5
0.097000,981.6,554.1,2052.3,174.9,3440.9,317.6,987.1,2058.4,3452.8,172.1,84,20.2
0.099000,988.5,588.2,2052.0,197.5,3465.2,362.3,1011.5,2057.2,3475.7,172.4,84.1,19.8
0.101000,989.9,621.0,2049.2,222.9,3491.8,416.5,1035.1,2054.2,3497.1,172.6,84.2,19.4
0.103000,981.7,646.8,2042.3,247.8,3518.4,466.7,1057.3,2049.3,3516.3,172.9,84.3,19.1
0.105000,972.2,673.4,2033.9,271.0,3538.1,480.6,1077.3,2042.3,3532.8,173.3,84.4,18.9
0.107000,971.2,714.3,2027.0,291.4,3549.6,455.1,1094.4,2033.3,3546.2,173.6,84.5,18.7
0.109000,980.4,773.2,2019.0,307.3,3558.3,425.7,1108.2,2022.4,3555.9,174,84.7,18.5
0.111000,1007.6,843.2,2010.0,313.9,3565.0,405.8,1118.2,2009.7,3562,174.3,84.8,18.4
0.113000,1067.4,896.8,2004.0,309.9,3567.1,392.2,1124.2,1995.5,3564.1,174.7,84.9,18.2
0.115000,1153.5,878.4,2000.4,296.0,3559.0,381.6,1126.2,1980.2,3562.6,175.1,85,18.1
0.117000,1217.5,809.9,1993.0,278.4,3539.2,373.8,1124.1,1964.1,3557.5,175.5,85,17.9
0.119000,1248.4,764.3,1976.4,265.1,3518.6,368.4,1118.3,1947.6,3549.2,175.9,85,17.7
0.121000,1247.4,768.4,1951.4,258.6,3515.3,371.2,1109.2,1931.3,3538.2,176.4,85,17.6
0.123000,1211.7,797.9,1923.3,251.1,3531.0,389.8,1097.3,1915.6,3525.2,176.8,84.8,17.5
0.125000,1149.7,795.2,1899.0,236.2,3554.0,430.4,1083.3,1901.1,3510.7,177.3,84.6,17.5
0.127000,1098.0,744.9,1883.8,219.0,3568.5,493.4,1067.8,1888.2,3495.5,177.8,84.4,17.8
0.129000,1066.8,691.0,1874.6,205.9,3558.5,579.6,1051.7,1877.4,3480.4,178.3,84.1,18.1
0.131000,1043.9,654.4,1867.3,199.6,3512.0,671.7,1035.8,1869.1,3466,178.8,83.7,18.4
0.133000,1024.0,627.0,1860.0,196.8,3450.7,725.9,1020.8,1863.7,3453.2,179.4,83.4,18.4
0.135000,1014.8,607.2,1855.5,192.0,3419.6,696.0,1007.5,1861.4,3442.6,179.9,83,18.1
0.137000,1015.1,605.0,1855.2,184.6,3429.0,600.6,996.6,1862.5,3434.6,180.5,82.6,17.4
0.139000,1003.8,620.0,1853.9,177.3,3444.2,522.3,988.5,1866.9,3429.8,181.1,82.3,16.5
0.141000,972.1,646.7,1849.8,171.6,3446.4,497.7,983.7,1874.8,3428.5,181.6,81.9,15.5
0.143000,932.6,678.7,1846.4,169.0,3432.6,514.3,982.4,1885.9,3430.8,182.2,81.4,14.5
0.145000,895.8,722.1,1847.2,175.7,3400.4,551.1,984.8,1900,3436.7,182.8,80.9,13.8
0.147000,868.4,777.0,1851.8,200.6,3358.8,588.1,990.7,1916.8,3446.1,183.4,80.3,13.2
0.149000,858.2,840.4,1859.9,258.3,3328.5,629.4,1000,1935.9,3458.6,184,79.6,12.6
0.151000,893.7,908.1,1877.0,385.0,3336.5,693.5,1012.2,1956.7,3473.9,184.6,78.9,12
0.153000,1028.5,895.0,1946.4,653.1,3411.9,773.3,1026.9,1978.7,3491.3,185.2,78.1,11.4
0.155000,1141.2,599.3,2164.2,839.6,3551.2,770.5,1043.4,2001.3,3510.3,185.7,77.2,10.8
0.157000,1147.1,425.7,2274.1,778.7,3648.9,671.8,1061,2023.9,3530.1,186.3,76.4,10.2
0.159000,1134.2,385.7,2246.1,717.7,3681.9,590.5,1079,2045.7,3549.9,186.8,75.6,9.6
0.161000,1113.7,407.0,2159.9,613.1,3676.5,551.9,1096.6,2066.1,3569.1,187.4,74.9,9.1
0.163000,1097.9,457.3,2099.3,491.1,3647.9,531.4,1113,2084.5,3586.8,187.9,74.3,8.4
0.165000,1101.2,512.1,2075.5,413.6,3607.2,497.7,1127.5,2100.4,3602.3,188.4,73.9,7.8
0.167000,1126.2,524.1,2072.7,392.2,3583.5,459.3,1139.5,2113.3,3615,188.8,73.5,7
0.169000,1157.0,501.1,2070.2,416.3,3586.4,440.6,1148.4,2122.8,3624.5,189.3,73.1,6.2
0.171000,1186.7,497.9,2040.5,467.3,3597.7,441.7,1154,2128.7,3630.4,189.7,72.8,5.4
0.173000,1209.7,549.4,1960.2,482.2,3594.9,449.1,1155.8,2130.6,3632.3,190.1,72.4,4.7
