time,f1,b1,f2,b2,f3,b3,f1p,f2p,f3p,f0,intensity,harmonicity
0.025500,411.7,113.5,1617.0,324.7,2482.2,336.1,482.6,1688.5,2532.4,174.3,62.4,12.5
0.027500,424.3,119.2,1698.7,290.3,2515.6,277.5,483.2,1687.9,2531.8,174.4,62.5,12.5
0.029500,441.0,119.7,1721.3,241.5,2528.6,232.1,484.3,1686.9,2530.8,174.5,62.8,10.7
0.031500,466.9,113.2,1712.5,204.6,2532.4,196.5,485.9,1685.4,2529.5,174.6,63.4,8.2
0.033500,496.3,95.4,1696.3,176.8,2532.5,166.9,487.9,1683.7,2527.8,174.7,64.3,5.8
0.035500,517.7,75.5,1684.1,155.9,2530.5,142.2,490.5,1681.6,2525.8,174.8,65.3,4.1
0.037500,529.2,61.6,1677.7,141.0,2528.6,123.6,493.5,1679.4,2523.6,174.8,66.5,3.7
0.039500,534.8,53.8,1674.6,128.9,2529.4,110.6,497.2,1676.9,2521.3,174.9,67.6,4.5
0.041500,537.7,49.9,1672.5,118.2,2533.8,102.0,501.4,1674.4,2518.8,174.9,68.7,6
0.043500,539.2,48.1,1670.5,108.9,2539.5,97.4,506.3,1671.8,2516.2,174.9,69.6,7.7
0.045500,540.1,47.4,1668.6,101.2,2542.9,96.8,511.8,1669.3,2513.6,174.9,70.4,9.1
0.047500,540.8,47.7,1666.4,94.8,2540.9,99.4,518,1666.9,2511,174.9,71,9.8
0.049500,541.6,48.5,1663.0,89.9,2532.6,104.7,524.9,1664.7,2508.5,174.8,71.5,10.1
0.051500,542.5,49.5,1659.3,87.2,2519.1,112.7,532.4,1662.7,2506.2,174.8,71.8,10.2
0.053500,543.8,51.2,1657.1,87.0,2505.6,119.8,540.6,1661,2504,174.7,72,10.1
0.055500,545.9,55.5,1657.2,90.1,2497.7,123.9,549.4,1659.6,2502.1,174.6,72,10.1
0.057500,549.0,64.7,1658.2,96.5,2494.1,126.2,558.8,1658.6,2500.4,174.5,71.9,10.3
0.059500,554.5,80.5,1657.4,104.0,2489.7,128.2,568.7,1657.9,2498.9,174.3,71.7,10.5
0.061500,564.0,103.3,1655.6,111.5,2482.6,130.9,579.1,1657.7,2497.8,174.2,71.5,10.8
0.063500,578.0,132.0,1656.1,121.0,2475.4,134.4,589.9,1657.8,2496.9,174,71.3,11
0.065500,595.3,164.3,1660.9,134.7,2471.4,136.6,600.9,1658.4,2496.2,173.8,71.1,11.3
0.067500,613.5,194.3,1667.6,153.9,2469.2,136.8,612.2,1659.2,2495.8,173.6,71,11.4
0.069500,629.9,215.2,1671.1,177.0,2465.9,138.3,623.5,1660.4,2495.5,173.4,70.8,11.5
0.071500,644.1,226.5,1670.0,196.4,2464.8,140.1,634.7,1661.8,2495.5,173.2,70.8,11.5
0.073500,657.4,231.3,1667.1,202.5,2470.2,138.4,645.8,1663.4,2495.5,173,70.8,11.6
0.075500,668.9,231.9,1663.7,195.9,2480.6,132.0,656.6,1665.1,2495.6,172.8,70.9,11.7
0.077500,677.3,229.7,1659.2,185.1,2491.8,122.4,667,1666.9,2495.7,172.5,70.9,12
0.079500,682.0,226.9,1653.6,176.5,2500.9,112.9,676.8,1668.7,2495.8,172.3,71,12.4
0.081500,684.1,226.9,1649.9,171.9,2507.5,105.6,685.9,1670.5,2495.8,172.1,71.1,12.9
0.083500,685.3,232.4,1650.8,171.2,2511.7,100.1,694.4,1672,2495.6,171.8,71.1,13.4
0.085500,686.9,243.5,1656.5,174.2,2513.5,95.8,701.9,1673.4,2495.2,171.6,71.1,13.7
0.087500,688.5,255.7,1665.3,180.5,2513.4,91.9,708.6,1674.4,2494.6,171.3,71.1,13.6
0.089500,689.9,264.6,1675.3,187.9,2514.5,87.7,714.2,1675.2,2493.8,171.1,71,13.2
0.091500,692.5,274.3,1686.1,194.9,2518.7,82.8,718.9,1675.5,2492.6,170.9,70.8,12.6
0.093500,697.4,291.7,1697.2,200.4,2523.9,78.2,722.5,1675.5,2491.1,170.6,70.6,12
0.095500,703.2,318.6,1705.9,205.6,2525.5,76.1,725.1,1675,2489.3,170.4,70.4,11.4
0.097500,710.4,358.9,1709.9,213.7,2521.3,78.9,726.7,1674,2487.1,170.2,70.2,11.1
0.099500,721.4,415.3,1706.6,225.7,2511.3,88.0,727.4,1672.7,2484.7,170,70,10.9
0.101500,733.7,473.2,1693.6,235.7,2497.9,102.8,727.1,1670.9,2481.9,169.8,69.8,10.7
0.103500,740.5,512.3,1675.3,236.1,2484.2,122.1,726.1,1668.8,2478.9,169.5,69.7,10.6
0.105500,740.4,527.9,1658.9,227.1,2470.7,142.6,724.4,1666.3,2475.7,169.3,69.6,10.6
0.107500,736.2,517.9,1646.3,213.0,2456.4,155.7,722,1663.5,2472.3,169.1,69.6,10.7
0.109500,729.5,481.6,1636.9,196.4,2441.3,156.1,719.2,1660.6,2468.8,168.9,69.7,11
0.111500,723.0,439.5,1630.3,182.1,2427.3,149.8,716.1,1657.4,2465.3,168.7,69.8,11.3
0.113500,719.7,411.7,1626.7,174.1,2416.9,144.1,712.8,1654.3,2461.8,168.5,69.9,11.7
0.115500,720.5,398.6,1626.6,171.7,2412.2,140.4,709.5,1651.2,2458.4,168.3,69.9,12.1
0.117500,722.9,387.1,1629.7,169.2,2415.4,135.4,706.2,1648.2,2455.2,168.1,69.9,12.4
0.119500,722.8,366.2,1634.1,163.2,2426.1,128.1,703.2,1645.4,2452.3,167.9,69.9,12.6
0.121500,718.9,337.3,1638.7,158.3,2439.6,121.8,700.5,1642.9,2449.7,167.7,69.9,12.8
0.123500,713.0,308.1,1644.5,158.6,2450.2,120.1,698.3,1640.8,2447.5,167.5,69.8,12.9
0.125500,706.5,282.8,1650.7,161.0,2455.4,123.6,696.6,1639.1,2445.8,167.3,69.8,13.1
0.127500,700.5,264.0,1655.1,159.6,2456.6,128.9,695.6,1638,2444.5,167.1,69.7,13.2
0.129500,696.6,253.6,1656.0,153.3,2457.5,130.1,695.2,1637.5,2443.8,166.9,69.6,13.4
0.131500,695.7,247.9,1653.0,144.7,2459.0,125.8,695.6,1637.6,2443.7,166.7,69.6,13.5
0.133500,696.9,240.2,1648.6,136.4,2457.5,121.4,696.8,1638.4,2444.1,166.5,69.6,13.6
0.135500,698.7,225.1,1644.9,129.2,2450.3,121.2,698.6,1639.9,2445.1,166.3,69.7,13.6
0.137500,701.0,204.1,1642.9,125.1,2442.0,124.6,701.2,1642.1,2446.7,166.1,69.8,13.7
0.139500,704.9,182.3,1643.6,125.9,2441.7,126.8,704.4,1645,2448.8,165.9,69.9,13.7
0.141500,708.9,163.2,1647.4,129.7,2451.5,123.1,708.1,1648.5,2451.5,165.7,70.1,13.6
0.143500,710.7,144.8,1651.6,133.1,2465.0,115.1,712.4,1652.7,2454.7,165.5,70.2,13.6
0.145500,710.0,128.4,1654.6,134.8,2477.0,106.8,717,1657.4,2458.3,165.3,70.4,13.4
0.147500,707.9,116.4,1657.6,134.9,2485.5,100.6,721.9,1662.7,2462.2,165.1,70.4,13.1
0.149500,705.3,110.0,1663.8,134.3,2491.1,97.5,726.8,1668.4,2466.4,164.9,70.5,12.7
0.151500,702.9,109.4,1674.0,135.0,2495.6,97.7,731.8,1674.5,2470.9,164.7,70.5,12.2
0.153500,702.0,114.2,1685.1,138.9,2499.5,100.6,736.6,1680.9,2475.5,164.5,70.4,11.6
0.155500,704.3,123.2,1692.9,148.6,2500.7,106.2,741.2,1687.6,2480.2,164.3,70.3,11.3
0.157500,711.0,136.6,1699.2,164.5,2496.5,114.0,745.3,1694.3,2484.9,164.2,70.2,11.1
0.159500,722.6,151.0,1706.5,179.6,2487.8,119.8,748.9,1701,2489.4,164,70.2,11.2
0.161500,737.5,158.5,1712.5,187.1,2478.3,121.5,751.8,1707.8,2493.9,163.8,70.1,11.3
0.163500,752.1,156.8,1715.5,187.9,2471.4,121.2,754,1714.3,2498.1,163.6,70.1,11.6
0.165500,764.2,150.9,1717.9,185.2,2469.3,121.0,755.4,1720.7,2502,163.4,70.1,11.8
0.167500,773.2,144.2,1721.6,178.9,2474.7,117.6,756,1726.8,2505.5,163.2,70.1,12.2
0.169500,780.2,137.4,1726.0,168.1,2487.4,106.6,755.7,1732.5,2508.7,163.1,70.1,12.6
0.171500,783.7,131.8,1729.3,157.0,2500.4,92.3,754.4,1737.9,2511.5,162.9,70.1,13.2
0.173500,782.7,127.3,1731.1,151.0,2509.6,82.8,752.3,1742.8,2513.9,162.7,70.1,13.7
0.175500,778.6,124.5,1733.1,152.9,2514.6,82.8,749.4,1747.3,2515.8,162.5,70.1,14
0.177500,773.5,123.5,1737.7,157.4,2516.6,89.2,745.8,1751.4,2517.4,162.3,70,14.1
0.179500,768.2,123.1,1746.1,155.8,2516.5,96.2,741.4,1754.9,2518.5,162.2,70,14
0.181500,761.6,121.4,1756.4,144.1,2516.5,100.3,736.5,1758,2519.2,162,70.1,13.8
0.183500,751.9,117.1,1765.9,125.1,2518.0,102.8,731.1,1760.7,2519.7,161.8,70.2,13.5
0.185500,739.6,110.1,1772.7,103.3,2521.7,106.2,725.4,1762.9,2519.7,161.7,70.3,13.2
0.187500,726.9,101.8,1777.4,82.7,2526.7,112.4,719.5,1764.8,2519.6,161.5,70.5,13
0.189500,715.4,94.2,1780.6,67.9,2529.9,123.9,713.6,1766.3,2519.2,161.3,70.6,13
0.191500,706.5,88.9,1782.5,60.9,2527.7,141.1,707.9,1767.5,2518.7,161.2,70.7,12.9
0.193500,700.3,88.0,1783.6,61.2,2519.4,161.2,702.3,1768.4,2518.1,161,70.8,12.9
0.195500,694.8,92.1,1784.5,67.7,2507.8,182.2,697.2,1769.1,2517.4,160.9,70.7,12.7
0.197500,688.4,98.4,1783.6,78.4,2498.4,204.5,692.7,1769.6,2516.8,160.7,70.5,12.3
0.199500,680.7,103.0,1778.7,89.8,2496.1,230.5,688.8,1770,2516.2,160.6,70.3,11.8
0.201500,672.3,104.9,1769.7,98.8,2500.9,261.7,685.6,1770.2,2515.7,160.4,70,11.2
0.203500,664.0,105.1,1759.3,104.3,2512.3,294.6,683.3,1770.4,2515.3,160.3,69.8,10.4
0.205500,655.8,104.7,1749.9,107.5,2534.8,319.1,681.9,1770.4,2515,160.2,69.4,9.6
0.207500,646.0,106.2,1740.2,111.4,2570.5,318.8,681.4,1770.5,2514.9,160.1,69,8.4
