time,f1,b1,f2,b2,f3,b3,f1p,f2p,f3p,f0,intensity,harmonicity
0.025500,596.0,150.1,1754.2,146.5,2353.5,546.3,593.8,1704.4,2434.7,181.6,68.3,-20.5
0.027500,599.3,119.9,1718.3,177.3,2401.5,404.7,593.8,1702.1,2434.7,181.4,70.2,7.7
0.029500,598.7,98.0,1685.4,177.4,2420.4,304.2,594,1698.1,2434.6,181.1,72,14.6
0.031500,595.6,88.4,1672.7,168.5,2435.5,252.1,594.2,1692.7,2434.4,180.9,73.5,12.8
0.033500,591.7,89.2,1673.6,167.9,2451.0,221.4,594.6,1685.7,2434,180.6,74.7,7.1
0.035500,588.7,97.2,1679.5,175.2,2465.4,193.6,595.2,1677.2,2433.1,180.4,75.7,2.5
0.037500,588.8,109.4,1681.2,187.7,2472.9,170.8,596,1667.4,2431.8,180.1,76.6,2.6
0.039500,592.1,120.8,1669.2,204.0,2470.7,160.3,597.2,1656.4,2429.8,179.8,77.2,4.1
0.041500,596.8,124.7,1641.5,217.3,2458.7,162.0,598.7,1644.2,2427.1,179.5,77.8,5.7
0.043500,601.0,120.8,1611.2,217.5,2440.7,169.0,600.7,1631.2,2423.8,179.2,78.3,7.4
0.045500,605.3,115.8,1590.0,206.7,2422.4,176.7,603.2,1617.5,2419.7,178.9,78.7,8.9
0.047500,609.8,114.3,1580.3,192.9,2411.4,182.3,606.3,1603.3,2415.1,178.6,79.1,10
0.049500,614.3,115.4,1573.8,178.6,2407.8,186.2,610,1589.1,2409.9,178.3,79.3,10.8
0.051500,618.2,118.0,1566.0,166.0,2407.3,191.1,614.4,1575.2,2404.5,178,79.5,11.5
0.053500,622.4,121.8,1556.0,155.4,2404.7,197.8,619.4,1561.8,2399,177.7,79.7,12
0.055500,627.0,124.7,1545.9,147.9,2396.0,202.1,625.2,1549.4,2393.7,177.4,79.8,12.4
0.057500,631.9,125.2,1537.4,143.1,2380.6,201.3,631.5,1538.2,2388.9,177.1,79.8,12.7
0.059500,636.7,124.4,1531.5,139.5,2363.7,196.9,638.5,1528.7,2384.9,176.8,79.8,12.9
0.061500,641.8,126.3,1528.4,136.4,2353.5,192.9,646,1521,2381.8,176.5,79.8,12.9
0.063500,648.0,133.2,1527.8,134.2,2354.7,192.0,654,1515.4,2379.8,176.2,79.8,12.9
0.065500,656.3,142.6,1528.6,131.7,2364.8,190.4,662.2,1512,2379.1,175.9,79.9,12.9
0.067500,666.0,147.5,1529.9,128.5,2377.1,183.1,670.7,1510.8,2379.7,175.6,79.9,12.8
0.069500,676.6,146.2,1531.9,126.8,2386.1,170.8,679.2,1511.8,2381.5,175.3,79.9,12.6
0.071500,687.5,142.2,1534.1,129.3,2391.2,159.4,687.5,1514.9,2384.4,175.1,79.9,12.4
0.073500,697.7,140.4,1535.1,137.2,2394.4,153.0,695.5,1519.9,2387.9,174.8,79.9,12.2
0.075500,707.6,145.3,1534.8,152.2,2396.2,151.2,703,1526.3,2391.8,174.5,79.8,12.1
0.077500,716.5,159.4,1536.6,171.4,2396.6,151.0,709.8,1533.9,2395.6,174.3,79.7,12
0.079500,724.8,181.0,1544.2,185.3,2395.9,148.3,715.7,1542.1,2398.7,174,79.6,12
0.081500,732.2,201.1,1553.7,181.4,2394.1,143.2,720.6,1550.6,2400.5,173.8,79.5,12.1
0.083500,737.3,212.0,1558.2,159.1,2391.2,139.7,724.3,1558.7,2400.5,173.5,79.4,12.2
0.085500,736.2,212.3,1555.7,132.5,2389.4,145.6,726.7,1566.1,2398.1,173.3,79.2,12.2
0.087500,727.5,208.9,1550.6,112.6,2388.6,170.1,727.8,1572.2,2392.7,173,79.1,12.4
0.089500,715.1,206.7,1546.6,101.1,2385.2,216.7,727.4,1576.8,2383.9,172.8,78.9,12.7
0.091500,703.5,210.4,1544.5,95.9,2376.8,274.5,725.6,1579.5,2371.5,172.6,78.6,13
0.093500,695.8,220.6,1543.2,95.5,2367.2,320.7,722.4,1580.1,2355.1,172.4,78.3,13.2
0.095500,693.8,233.0,1541.7,100.0,2362.6,353.4,717.9,1578.5,2334.7,172.1,78,13.2
0.097500,699.4,239.5,1540.8,110.8,2365.0,387.6,712.1,1574.8,2310.6,171.9,77.7,12.6
0.099500,709.1,241.6,1545.6,129.4,2365.7,450.2,705.3,1569,2282.8,171.7,77.4,11.5
0.101500,716.5,246.6,1562.2,155.9,2347.1,570.9,697.5,1561.6,2252,171.4,77.1,10.1
0.103500,715.6,257.7,1586.7,189.0,2268.2,726.0,689.1,1552.8,2218.7,171.2,76.9,8.6
0.105500,704.4,275.1,1609.2,243.8,2118.4,736.5,680.1,1543,2183.5,171,76.6,7.5
0.107500,686.2,293.0,1608.4,341.2,2005.0,566.3,670.9,1532.8,2147.3,170.8,76.4,6.9
0.109500,665.6,305.6,1565.9,421.0,1979.1,381.6,661.6,1522.6,2110.9,170.6,76.3,6.9
0.111500,645.6,311.8,1535.8,427.0,1986.8,301.5,652.4,1513.1,2075,170.3,76.3,7.1
0.113500,630.9,317.5,1529.2,419.2,1990.6,284.5,643.6,1504.7,2040.7,170.1,76.3,7.4
0.115500,621.7,329.3,1524.8,430.6,1986.3,293.4,635.4,1497.9,2008.5,169.9,76.4,7.8
0.117500,617.2,342.5,1515.8,471.2,1979.3,311.2,627.8,1492.9,1979.2,169.7,76.5,7.9
0.119500,616.2,347.7,1502.3,540.5,1977.9,330.1,621,1490.2,1953.2,169.5,76.6,8.2
0.121500,617.9,342.9,1476.0,630.4,1984.5,338.5,615,1489.8,1931,169.3,76.7,8.4
0.123500,619.4,332.0,1437.1,705.7,1990.1,325.7,610,1491.7,1912.7,169.1,76.7,8.6
0.125500,618.8,317.3,1412.8,766.0,1974.8,296.4,605.9,1495.9,1898.3,168.9,76.8,8.7
0.127500,614.7,304.6,1419.6,833.4,1939.8,255.4,602.6,1502.1,1887.8,168.7,76.8,8.7
0.129500,605.9,297.4,1441.8,891.3,1912.4,215.5,600.2,1510,1880.7,168.5,76.8,8.7
0.131500,593.3,290.2,1475.0,921.9,1900.5,194.3,598.5,1519.1,1876.7,168.3,76.8,8.6
0.133500,580.4,269.3,1519.9,939.0,1895.4,190.3,597.4,1528.9,1875.3,168.2,76.7,8.4
0.135500,571.5,225.2,1577.2,987.0,1885.6,188.6,596.7,1539,1875.8,168,76.6,8.2
0.137500,572.4,177.4,1620.1,1126.6,1869.5,169.2,596.5,1548.6,1877.5,167.8,76.5,7.8
0.139500,582.4,146.1,1613.8,1379.2,1857.4,137.4,596.5,1557.4,1880,167.7,76.4,7.2
0.141500,596.3,131.2,1564.2,1634.3,1852.5,118.4,596.6,1564.8,1882.6,167.6,76.1,6.5
0.143500,607.8,124.2,1542.4,1660.7,1852.1,122.6,596.8,1570.4,1884.8,167.4,75.7,5.7
0.145500,616.4,120.6,1577.0,1432.9,1854.8,153.5,596.9,1573.9,1886.3,167.3,75.2,4.9
0.147500,622.4,124.8,1618.1,1153.0,1861.5,218.1,597,1575.1,1886.9,167.2,74.6,4.3
