time,f1,b1,f2,b2,f3,b3,f1p,f2p,f3p,f0,intensity,harmonicity
0.025000,672.8,98.4,1614.1,169.3,1994.3,738.2,659.3,1629.6,2175.6,152.8,68.7,2.6
0.027000,683.7,110.6,1618.6,163.8,2036.3,788.3,660.7,1629.2,2178.7,152.5,69,2.7
0.029000,687.8,120.6,1620.5,152.6,2081.9,801.4,662.9,1628.5,2183.9,152.2,69.2,2.6
0.031000,683.4,129.5,1622.8,133.3,2154.1,783.4,666,1627.7,2191.1,151.9,69.2,2.4
0.033000,673.1,135.3,1627.2,112.2,2269.1,716.3,669.8,1626.9,2200.2,151.6,69.3,2.5
0.035000,661.7,138.7,1632.9,96.4,2374.7,375.7,674.4,1626.2,2211.1,151.3,69.3,2.9
0.037000,654.8,145.1,1638.4,88.6,2340.3,237.7,679.6,1625.8,2223.5,151,69.3,3.9
0.039000,655.9,160.1,1643.0,85.0,2333.9,175.6,685.4,1625.8,2237.4,150.6,69.4,5.4
0.041000,663.8,180.0,1644.1,83.2,2333.2,147.8,691.6,1626.5,2252.6,150.2,69.4,7.1
0.043000,672.8,196.9,1641.3,84.0,2332.6,141.6,698.2,1628.1,2268.8,149.8,69.5,8.5
0.045000,679.2,204.0,1638.0,88.8,2333.5,150.0,705,1630.6,2285.9,149.4,69.5,9.4
0.047000,685.0,206.7,1638.7,98.7,2337.6,165.6,712,1634.4,2303.6,149,69.5,9.6
0.049000,696.3,218.3,1646.1,116.7,2344.9,183.0,719,1639.5,2321.7,148.5,69.4,9.2
0.051000,715.9,239.0,1659.5,138.1,2354.7,194.0,725.8,1646,2340,148,69.3,8.6
0.053000,740.9,252.8,1671.6,149.3,2366.1,191.0,732.5,1654.1,2358.2,147.4,69.1,8.1
0.055000,766.7,254.7,1676.3,146.9,2374.5,173.6,738.8,1663.6,2376,146.8,69,7.9
0.057000,790.6,250.8,1675.8,136.8,2375.4,150.7,744.7,1674.7,2393.4,146.1,68.8,8.1
0.059000,806.4,237.3,1674.8,123.8,2370.4,130.2,750.1,1687.3,2410.1,145.4,68.7,8.5
0.061000,804.0,214.3,1677.3,113.6,2363.5,120.9,754.9,1701.3,2425.9,144.6,68.6,9
0.063000,790.1,192.0,1686.4,109.4,2356.8,125.1,759,1716.5,2440.7,143.7,68.6,9.4
0.065000,774.9,178.3,1701.0,112.3,2355.7,142.2,762.4,1732.6,2454.2,142.7,68.5,9.4
0.067000,761.3,172.2,1715.8,122.4,2366.7,170.7,764.9,1749.6,2466.4,141.6,68.3,8.8
0.069000,748.2,166.6,1733.2,143.9,2396.4,215.7,766.7,1767.1,2477.2,140.4,68.2,7.8
0.071000,742.6,155.0,1761.7,170.6,2447.2,260.7,767.6,1784.8,2486.4,139.2,68,6.7
0.073000,747.4,135.1,1802.6,176.2,2499.9,265.1,767.7,1802.3,2494.1,137.8,67.6,5.7
0.075000,753.5,113.4,1834.2,155.4,2524.7,243.7,766.9,1819.4,2500.2,136.2,67.2,4.9
0.077000,754.6,100.0,1846.6,133.3,2525.0,226.6,765.4,1835.7,2504.8,134.6,66.6,4.6
0.079000,751.6,93.1,1847.3,116.6,2513.4,210.4,763.1,1850.8,2507.8,132.9,66,4.4
0.081000,746.9,88.6,1843.0,109.7,2508.6,198.6,760.1,1864.5,2509.3,131,65.2,4.4
0.083000,742.7,85.6,1842.9,120.7,2528.3,202.7,756.6,1876.3,2509.4,129.1,64.5,4.3
0.085000,741.0,85.9,1862.2,153.4,2558.7,225.1,752.5,1886.1,2508.2,127,63.8,3.8
0.087000,743.3,91.2,1906.8,175.0,2574.7,265.6,747.9,1893.5,2505.8,124.8,63.2,2.9
0.089000,749.6,106.7,1940.4,163.3,2574.3,311.7,743.1,1898.5,2502.3,0,62.8,1.6
0.091000,758.5,140.0,1945.5,157.8,2562.6,358.8,738,1900.7,2498,0,62.7,0.2
0.093000,760.9,180.6,1938.8,163.4,2555.1,395.8,732.8,1900.3,2493,0,62.8,-0.9
0.095000,741.9,184.8,1930.5,166.5,2549.9,422.9,727.7,1897.1,2487.4,0,63,-1.7
0.097000,718.3,153.8,1928.0,160.8,2540.7,452.3,722.7,1891.2,2481.4,0,63.2,-1.9
0.099000,702.6,120.6,1929.6,153.0,2520.0,488.7,717.9,1882.6,2475.2,0,63.3,-1.7
0.101000,694.0,98.0,1928.1,154.1,2483.0,516.2,713.5,1871.7,2469.1,0,63.2,-1.3
0.103000,688.8,85.4,1916.8,169.5,2438.3,505.4,709.5,1858.4,2463.1,0,62.9,-0.8
0.105000,685.6,82.3,1890.0,198.5,2410.3,455.5,706.1,1843.2,2457.4,0,62.4,-0.4
0.107000,686.5,84.4,1849.8,234.9,2402.9,415.5,703.4,1826.4,2452.3,0,61.8,-0.1
0.109000,695.2,82.7,1802.7,269.0,2398.2,400.9,701.3,1808.2,2447.7,0,61.1,0.2
0.111000,708.1,73.3,1759.8,287.9,2389.2,403.7,699.9,1789.1,2443.9,96.5,60.5,0.6
0.113000,717.5,62.2,1717.7,293.6,2381.2,415.9,699.3,1769.5,2441,94.4,60,1
0.115000,720.0,55.8,1676.8,291.3,2381.7,436.6,699.5,1749.7,2439.1,92.5,59.6,1.3
0.117000,717.2,54.7,1646.1,283.3,2394.6,443.5,700.5,1730.3,2438.1,90.6,59.2,1.8
0.119000,714.6,51.8,1624.3,270.9,2407.7,415.6,702.2,1711.5,2438.2,88.8,58.9,2.3
0.121000,716.4,42.1,1608.6,259.3,2409.5,379.9,704.7,1693.7,2439.4,87.2,58.8,2.7
0.123000,718.3,33.6,1599.4,257.0,2416.9,374.7,707.8,1677.4,2441.7,85.7,58.8,3.2
0.125000,716.6,31.9,1598.5,275.7,2436.4,437.9,711.5,1662.7,2445.1,84.4,58.7,3.5
0.127000,712.8,36.0,1606.0,308.8,2449.9,600.0,715.7,1650,2449.4,83.1,58.5,6.9
0.129000,709.2,45.5,1620.6,339.4,2414.7,798.3,720.3,1639.3,2454.7,82,58.2,13.4
0.131000,710.6,60.8,1637.4,345.2,2431.0,831.6,725.1,1631,2460.8,81,57.7,18.2
0.133000,723.2,79.6,1652.5,339.4,2504.6,718.2,730.1,1625,2467.7,80.2,57.2,16.5
0.135000,746.1,83.3,1672.3,330.9,2545.2,566.9,735.1,1621.3,2475.2,79.4,56.7,3.5
0.137000,762.1,68.1,1695.3,303.3,2558.6,466.0,740,1619.9,2483.2,78.8,56.4,-27.5
0.139000,767.0,55.7,1711.7,269.1,2560.9,396.8,744.5,1620.7,2491.5,78.3,56.3,-73
0.141000,765.5,54.3,1714.9,259.1,2551.3,356.8,748.6,1623.5,2500.1,77.8,56.3,-123.5
0.143000,761.7,61.8,1708.0,277.1,2533.8,339.0,752.2,1628.1,2508.8,77.5,56.3,-169.1
0.145000,759.4,74.1,1696.4,297.5,2517.1,332.4,755,1634.2,2517.4,77.2,56.3,-200
0.147000,759.4,80.7,1687.5,284.9,2510.0,333.2,757,1641.4,2525.7,77.1,56.4,-213
0.149000,757.0,76.1,1681.2,240.5,2510.2,339.8,758.1,1649.6,2533.7,76.9,56.3,-214.7
0.151000,749.6,66.5,1673.8,190.9,2513.6,347.4,758.1,1658.2,2541.2,76.9,56.2,-209.8
0.153000,739.5,59.1,1665.0,145.9,2524.5,364.3,757,1667.1,2548,76.9,56,-203.3
0.155000,729.6,58.1,1658.8,111.8,2553.5,412.6,754.7,1675.7,2554.2,76.9,55.7,-200
0.157000,720.9,67.2,1657.1,97.6,2599.2,493.8,751.2,1683.7,2559.5,77,55.3,-200
0.159000,712.1,86.6,1657.4,106.7,2646.5,602.0,746.4,1690.9,2564,77.1,55,-200
0.161000,704.4,102.5,1656.2,144.2,2677.2,739.1,740.4,1697,2567.6,77.3,54.7,-200
0.163000,699.0,102.8,1651.6,220.8,2667.4,965.4,733.2,1701.6,2570.1,77.5,54.6,-200
0.165000,694.0,95.6,1646.5,351.6,2531.3,1221.6,724.8,1704.7,2571.8,77.7,54.5,-200
0.167000,690.1,90.7,1658.5,469.1,2406.2,1254.5,715.3,1706,2572.4,77.9,54.6,-200
0.169000,687.9,86.7,1690.2,442.2,2496.0,1118.2,704.8,1705.5,2572.1,78.1,54.6,-200
0.171000,687.6,78.9,1695.0,371.4,2574.3,815.0,693.5,1703.1,2570.9,78.3,54.8,-200
0.173000,688.9,66.3,1677.2,348.4,2560.5,582.9,681.4,1698.8,2568.9,78.6,55,-200
0.175000,688.3,56.4,1655.2,350.4,2537.0,439.8,668.7,1692.9,2566.2,78.8,55.1,-200
0.177000,685.1,52.9,1645.1,354.0,2531.9,363.8,655.6,1685.3,2562.8,79.1,55.2,-203.3
0.179000,679.6,53.3,1648.3,353.9,2539.9,327.8,642.3,1676.4,2558.8,79.3,55.2,-209.9
0.181000,673.6,55.1,1661.0,341.5,2547.4,326.9,628.9,1666.2,2554.5,79.5,54.9,-214.8
0.183000,669.0,56.7,1674.8,311.9,2541.1,392.2,615.7,1655.2,2549.8,0,54.5,-213.2
0.185000,667.6,59.2,1682.1,272.0,2505.5,527.5,602.8,1643.6,2545,0,54,-200
0.187000,669.3,67.3,1681.6,225.0,2472.3,589.8,590.5,1631.8,2540.2,0,53.8,-168.8
0.189000,668.3,89.2,1675.4,181.9,2490.7,525.9,578.8,1620.1,2535.4,0,54,-122.9
0.191000,649.1,137.6,1665.5,169.3,2517.5,422.7,568.1,1608.7,2530.9,0,54.8,-72
0.193000,593.4,204.0,1647.3,188.0,2530.3,353.6,558.4,1598.1,2526.7,0,55.9,-25.9
0.195000,524.1,233.0,1619.2,218.2,2536.4,294.9,550,1588.6,2523,0,57,5.5
0.197000,479.7,227.9,1589.9,246.7,2544.4,244.9,542.9,1580.4,2519.8,0,58,19.1
0.199000,457.3,219.8,1563.6,268.8,2554.2,211.1,537.2,1573.8,2517.2,0,58.7,21.3
0.201000,453.0,223.7,1544.6,283.0,2562.7,197.6,533.1,1568.9,2515.3,0,59.1,17.1
0.203000,464.4,247.4,1530.0,302.5,2566.8,199.1,530.6,1565.9,2514.2,0,59.3,11.1
0.205000,486.0,285.7,1513.5,337.5,2563.0,202.4,529.8,1564.9,2513.8,0,59.6,8.2
